Te,rate,energy,Kdruyv
0.1,3.509464831824598e-14,9.294350014315256e-07,3.342556517339484e-14
0.10722672220103231,3.375408638519979e-14,1.0200209719218392e-06,3.188547901744201e-14
0.11497569953977356,3.240349547052001e-14,1.1171533388525967e-06,3.033379700937433e-14
0.12328467394420663,3.104965193673448e-14,1.221305192108728e-06,2.877878008803556e-14
0.1321941148466029,2.9699809628961607e-14,1.3329838104669059e-06,2.722895438591188e-14
0.1417474162926805,2.8361718177842723e-14,1.4527331323317807e-06,2.569308559483611e-14
0.1519911082952934,2.7043653147605685e-14,1.5811364050254506e-06,2.4180182829247125e-14
0.16297508346206444,2.5754460136248934e-14,1.7188190255337255e-06,2.2699525462087377e-14
0.17475284000076838,2.4503614506999675e-14,1.8664515865452349e-06,2.1260700247954267e-14
0.1873817422860384,2.3301297902075662e-14,2.024753142619316e-06,1.9873639803173956e-14
0.20092330025650468,2.2158492147961084e-14,2.1944947123907814e-06,1.854866533367707e-14
0.2154434690031884,2.108709071324187e-14,2.376503033869304e-06,1.7296549145363464e-14
0.23101297000831597,2.0100027618762686e-14,2.5716645911238395e-06,1.6128619049768476e-14
0.24770763559917108,1.9211423660809072e-14,2.7809299319643696e-06,1.5056924420106748e-14
0.26560877829466867,1.843674992606553e-14,3.0053182976504887e-06,1.4094473497526292e-14
0.2848035868435802,1.779300865767984e-14,3.2459225871761795e-06,1.3255536892988064e-14
0.30538555088334157,1.7298931247107056e-14,3.5039146803096595e-06,1.255599707282147e-14
0.32745491628777285,1.6975192045018672e-14,3.7805511453145245e-06,1.2013712209922209e-14
0.3511191734215131,1.6844634336827182e-14,4.077179359152047e-06,1.1648859308648427e-14
0.3764935806792468,1.6932500806526566e-14,4.395244069973492e-06,1.148422885457577e-14
0.40370172585965547,1.7266654898313357e-14,4.73629443386552e-06,1.154546112110075e-14
0.43287612810830584,1.7877771789341523e-14,5.101991560121633e-06,1.1861238316661062e-14
0.464158883361278,1.8799468767708014e-14,5.4941166017894364e-06,1.2463470104074206e-14
0.49770235643321115,2.006833572744525e-14,5.914579430899253e-06,1.3387526393661497e-14
0.533669923120631,2.1723818749997466e-14,6.3654279406274365e-06,1.4672575884883985e-14
0.5722367659350217,2.380790509937341e-14,6.84885801970117e-06,1.6362075499127193e-14
0.6135907273413173,2.636455815163665e-14,7.367224247625793e-06,1.850441649777723e-14
0.6579332246575681,2.943885721693904e-14,7.9230513628265e-06,2.115366469174908e-14
0.7054802310718644,3.307581072528395e-14,8.519046559560773e-06,2.437024608922911e-14
0.7564633275546289,3.7318831930122235e-14,9.158112673494527e-06,2.822134990350073e-14
0.8111308307896873,4.2207893407750405e-14,9.84336232016321e-06,3.278076946564519e-14
0.8697490026177834,4.777740859027162e-14,1.057813305518019e-05,3.81278772606731e-14
0.9326033468832199,5.405392285480685e-14,1.136600363003133e-05,4.4345411565719085e-14
1.0,6.105372992647462e-14,1.221081142263064e-05,5.151574985031069e-14
1.072267222010323,6.878055750073463e-14,1.3116671127533775e-05,5.971545640354275e-14
1.1497569953977356,7.722348479179397e-14,1.408799479684135e-05,6.90082214227929e-14
1.232846739442066,8.635526034736336e-14,1.5129513329402658e-05,7.943677049368261e-14
1.3219411484660293,9.613117832393926e-14,1.624629951298445e-05,9.101463482027523e-14
1.4174741629268055,1.0648864476117335e-13,1.7443792731633198e-05,1.0371863875397682e-13
1.5199110829529339,1.17347523754514e-13,1.872782545856989e-05,1.1748270595202352e-13
1.6297508346206444,1.2861130052324251e-13,2.0104651663652642e-05,1.3219342249886465e-13
1.7475284000076838,1.4016903961976613e-13,2.1580977273767736e-05,1.4768789877904883e-13
1.8738174228603839,1.5189805819899855e-13,2.316399283450854e-05,1.637547095627181e-13
2.009233002565047,1.636671825281915e-13,2.4861408532223202e-05,1.8013874691579783e-13
2.1544346900318843,1.7534041592666897e-13,2.6681491747008423e-05,1.9655045267333638e-13
2.31012970008316,1.867808215792278e-13,2.8633107319553782e-05,2.1267912777446546e-13
2.4770763559917115,1.9785441567830356e-13,3.072576072795909e-05,2.28209122297639e-13
2.656087782946687,2.0843387465851665e-13,3.296964438482027e-05,2.428370534805172e-13
2.848035868435802,2.1840188275552428e-13,3.5375687280077175e-05,2.562880148682147e-13
3.0538555088334154,2.2765397941104847e-13,3.795560821141197e-05,2.683290340149669e-13
3.2745491628777286,2.361008061721526e-13,4.0721972861460626e-05,2.7877863420670986e-13
3.511191734215131,2.4366969560020884e-13,4.3688254999835855e-05,2.8751203477742056e-13
3.7649358067924674,2.503055865620702e-13,4.6868902108050294e-05,2.9446212035473453e-13
4.037017258596556,2.559712880437952e-13,5.02794057469706e-05,2.9961674302690745e-13
4.328761281083059,2.6064714508911193e-13,5.3936377009531734e-05,3.0301317536437185e-13
4.641588833612779,2.6433018432249665e-13,5.785762742620975e-05,3.0473062298375045e-13
4.977023564332112,2.670328323351224e-13,6.206225571730791e-05,3.0488167081095045e-13
5.3366992312063095,2.6878130828200965e-13,6.657074081458973e-05,3.036034259668576e-13
5.722367659350217,2.696137931939585e-13,7.140504160532708e-05,3.0104897530533994e-13
6.1359072734131725,2.6957847392652376e-13,7.658870388457331e-05,2.9737962212879044e-13
6.5793322465756825,2.687315506887744e-13,8.21469750365804e-05,2.9275821328439263e-13
7.054802310718645,2.67135285063012e-13,8.810692700392313e-05,2.873437193884906e-13
7.56463327554629,2.648561515868634e-13,9.449758814326067e-05,2.8128709720892545e-13
8.111308307896872,2.6196314139672636e-13,0.00010135008460994745,2.747283580578848e-13
8.697490026177835,2.5852625200490896e-13,0.00010869779196011728,2.6779469925480953e-13
9.326033468832199,2.5461518368130043e-13,0.00011657649770862867,2.605995273056498e-13
10.0,2.5029825062675244e-13,0.00012502457563462178,2.5324220211729136e-13
10.722672220103231,2.4564150448488216e-13,0.0001340831726836531,2.4580834799736423e-13
11.497569953977356,2.407080589232376e-13,0.00014379640937672888,2.383705976850729e-13
12.32846739442066,2.3555759709059837e-13,0.00015421159470234197,2.30989653475798e-13
13.219411484660288,2.3024603871323226e-13,0.0001653794565381598,2.2371556351272155e-13
14.174741629268048,2.2482534037913308e-13,0.00017735438872464726,2.1658912400855064e-13
15.199110829529332,2.1934340112043439e-13,0.0001901947159940142,2.0964333053631656e-13
16.297508346206453,2.138440456942334e-13,0.0002039629780448419,2.0290480899730503e-13
17.475284000076847,2.0836705992919894e-13,0.00021872623414599283,1.96395155324715e-13
18.73817422860385,2.0294825604851888e-13,0.0002345563897534009,1.9013211153194072e-13
20.09233002565048,1.9761955078962292e-13,0.0002515305467305475,1.8413052257745092e-13
21.544346900318846,1.924090450499307e-13,0.0002697313788783997,1.7840305520647644e-13
23.101297000831604,1.873411001537106e-13,0.00028924753460385323,1.7296069118332995e-13
24.770763559917114,1.8243641197757706e-13,0.00031017406868790625,1.6781300981299013e-13
26.560877829466868,1.7771208935905829e-13,0.0003326129052565181,1.6296825587323136e-13
28.48035868435802,1.731817467803654e-13,0.00035667333420908717,1.584331752574394e-13
30.538555088334157,1.6885562279674032e-13,0.00038247254352243514,1.542126076034213e-13
32.74549162877728,1.6474073488283188e-13,0.0004101361900229217,1.5030885504958285e-13
35.11191734215131,1.6084107845214084e-13,0.00043979901140667394,1.4672089883722657e-13
37.64935806792467,1.5715787323132666e-13,0.00047160548248881837,1.4344360301566032e-13
40.37017258596554,1.5368985465442526e-13,0.0005057105188780211,1.4046709973848087e-13
43.28761281083057,1.5043360232094324e-13,0.0005422802315036325,1.3777655725062237e-13
46.41588833612782,1.4738389266359995e-13,0.0005814927356704132,1.353524722482126e-13
49.770235643321136,1.4453405946678339e-13,0.0006235390185813948,1.3317151927962167e-13
53.366992312063125,1.4187634414994226e-13,0.0006686238695542132,1.3120787004169237e-13
57.223676593502205,1.39402217790824e-13,0.0007169668774615866,1.2943480233208466e-13
61.35907273413176,1.3710265833534e-13,0.0007688035002540489,1.278263721382695e-13
65.79332246575683,1.3496836866637223e-13,0.0008243862117741195,1.263589238479639e-13
70.54802310718645,1.329899234827421e-13,0.0008839857314475466,1.2501225226830706e-13
75.64633275546291,1.311578348611077e-13,0.0009478923428409221,1.237702920922127e-13
81.11308307896873,1.2946252812532618e-13,0.00101641730750779,1.2262128235096691e-13
86.97490026177834,1.2789422213067528e-13,0.0010898943810094882,1.2155742372367235e-13
93.26033468832199,1.2644271267663478e-13,0.0011686814384946021,1.2057410747848994e-13
100.0,1.2509706580285786e-13,0.001253162217754533,1.1966884396359624e-13
